   Simtime [s] 	   Realtime [s]	 Percentage [%]
            600	       0.000162	         0.0019
           1200	       0.000177	         0.0038
           1800	       0.000187	         0.0057
           2400	       0.000196	         0.0076
           3000	       0.000205	         0.0095
           3600	       0.000213	          0.011
           4200	       0.000222	          0.013
           4800	        0.00023	          0.015
           5400	       0.000238	          0.017
           6000	       0.000246	          0.019
           6600	       0.000265	          0.021
           7200	       0.000274	          0.023
           7800	       0.000281	          0.025
           8400	        0.00029	          0.027
           9000	       0.000298	          0.029
           9600	       0.000306	           0.03
          10200	       0.000314	          0.032
          10800	       0.000323	          0.034
          11400	       0.000331	          0.036
          12000	       0.000338	          0.038
          12600	       0.000347	           0.04
          13200	       0.000355	          0.042
          13800	       0.000363	          0.044
          14400	       0.000371	          0.046
          15000	        0.00038	          0.048
          15600	       0.000388	          0.049
          16200	       0.000395	          0.051
          16800	       0.000404	          0.053
          17400	       0.000411	          0.055
          18000	        0.00042	          0.057
          18600	       0.000428	          0.059
          19200	       0.000437	          0.061
          19800	       0.000445	          0.063
          20400	       0.000452	          0.065
          21000	       0.000461	          0.067
          21600	       0.000469	          0.068
          22200	       0.000477	           0.07
          22800	       0.000485	          0.072
          23400	       0.000494	          0.074
          24000	       0.000502	          0.076
          24600	        0.00051	          0.078
          25200	       0.000518	           0.08
          25800	       0.000526	          0.082
          26400	       0.000535	          0.084
          27000	       0.000542	          0.086
          27600	       0.000551	          0.088
          28200	       0.000559	          0.089
          28800	       0.000566	          0.091
          29400	       0.000575	          0.093
          30000	       0.000583	          0.095
          30600	       0.000592	          0.097
          31200	       0.000599	          0.099
          31800	       0.000608	            0.1
          32400	       0.000616	            0.1
          33000	       0.000624	            0.1
          33600	       0.000633	           0.11
          34200	        0.00064	           0.11
          34800	       0.000649	           0.11
          35400	       0.000657	           0.11
          36000	       0.000665	           0.11
          36600	       0.000673	           0.12
          37200	       0.000681	           0.12
          37800	        0.00069	           0.12
          38400	       0.000697	           0.12
          39000	       0.000707	           0.12
          39600	       0.000715	           0.13
          40200	       0.000723	           0.13
          40800	       0.000731	           0.13
          41400	       0.000739	           0.13
          42000	       0.000748	           0.13
          42600	       0.000756	           0.14
          43200	       0.000764	           0.14
          43800	       0.000772	           0.14
          44400	       0.000781	           0.14
          45000	       0.000788	           0.14
          45600	       0.000796	           0.14
          46200	       0.000805	           0.15
          46800	       0.000812	           0.15
          47400	       0.000821	           0.15
          48000	       0.000829	           0.15
          48600	       0.000838	           0.15
          49200	       0.000845	           0.16
          49800	       0.000854	           0.16
          50400	       0.000863	           0.16
          51000	        0.00087	           0.16
          51600	       0.000884	           0.16
          52200	       0.000893	           0.17
          52800	       0.000901	           0.17
          53400	       0.000908	           0.17
          54000	       0.000917	           0.17
          54600	       0.000925	           0.17
          55200	       0.000933	           0.18
          55800	       0.000941	           0.18
          56400	        0.00095	           0.18
          57000	       0.000958	           0.18
          57600	       0.000966	           0.18
          58200	       0.000975	           0.18
          58800	       0.000982	           0.19
          59400	       0.000991	           0.19
          60000	       0.000998	           0.19
          60600	       0.001007	           0.19
          61200	       0.001015	           0.19
          61800	       0.001023	            0.2
          62400	       0.001032	            0.2
          63000	        0.00104	            0.2
          63600	       0.001048	            0.2
          64200	       0.001056	            0.2
          64800	       0.001065	           0.21
          65400	       0.001073	           0.21
          66000	       0.001082	           0.21
          66600	        0.00109	           0.21
          67200	       0.001098	           0.21
          67800	       0.001106	           0.21
          68400	       0.001114	           0.22
          69000	       0.001123	           0.22
          69600	       0.001131	           0.22
          70200	       0.001139	           0.22
          70800	       0.001147	           0.22
          71400	       0.001155	           0.23
          72000	       0.001164	           0.23
          72600	       0.001172	           0.23
          73200	        0.00118	           0.23
          73800	       0.001188	           0.23
          74400	       0.001197	           0.24
          75000	       0.001204	           0.24
          75600	       0.001212	           0.24
          76200	       0.001221	           0.24
          76800	       0.001229	           0.24
          77400	       0.001238	           0.25
          78000	       0.001246	           0.25
          78600	       0.001263	           0.25
          79200	       0.001271	           0.25
          79800	        0.00128	           0.25
          80400	       0.001287	           0.25
          81000	       0.001296	           0.26
          81600	       0.001304	           0.26
          82200	       0.001312	           0.26
          82800	       0.001321	           0.26
          83400	       0.001328	           0.26
          84000	       0.001337	           0.27
          84600	       0.001345	           0.27
          85200	       0.001354	           0.27
          85800	       0.001361	           0.27
          86400	       0.001369	           0.27
          87000	       0.001378	           0.28
          87600	       0.001386	           0.28
          88200	       0.001394	           0.28
          88800	       0.001402	           0.28
          89400	       0.001411	           0.28
          90000	       0.001419	           0.29
          90600	       0.001427	           0.29
          91200	       0.001435	           0.29
          91800	       0.001443	           0.29
          92400	       0.001452	           0.29
          93000	       0.001459	           0.29
          93600	       0.001468	            0.3
          94200	       0.001476	            0.3
          94800	       0.001484	            0.3
          95400	       0.001492	            0.3
          96000	         0.0015	            0.3
          96600	       0.001509	           0.31
          97200	       0.001517	           0.31
          97800	       0.001526	           0.31
          98400	       0.001534	           0.31
          99000	       0.001543	           0.31
          99600	       0.001551	           0.32
         100200	       0.001558	           0.32
         100800	       0.001567	           0.32
         101400	       0.001575	           0.32
         102000	       0.001584	           0.32
         102600	       0.001594	           0.33
         103200	       0.001603	           0.33
         103800	       0.001611	           0.33
         104400	        0.00162	           0.33
         105000	       0.001628	           0.33
         105600	       0.001636	           0.33
         106200	       0.001644	           0.34
         106800	       0.001652	           0.34
         107400	       0.001661	           0.34
         108000	       0.001668	           0.34
         108600	       0.001677	           0.34
         109200	       0.001685	           0.35
         109800	       0.001694	           0.35
         110400	       0.001702	           0.35
         111000	        0.00171	           0.35
         111600	       0.001719	           0.35
         112200	       0.001727	           0.36
         112800	       0.001736	           0.36
         113400	       0.001743	           0.36
         114000	       0.001752	           0.36
         114600	        0.00176	           0.36
         115200	       0.001768	           0.37
         115800	       0.001777	           0.37
         116400	       0.001784	           0.37
         117000	       0.001793	           0.37
         117600	       0.001801	           0.37
         118200	        0.00181	           0.37
         118800	       0.001818	           0.38
         119400	       0.001827	           0.38
         120000	       0.001835	           0.38
         120600	       0.001843	           0.38
         121200	       0.001851	           0.38
         121800	       0.001859	           0.39
         122400	       0.001868	           0.39
         123000	       0.001876	           0.39
         123600	       0.001884	           0.39
         124200	       0.001892	           0.39
         124800	         0.0019	            0.4
         125400	       0.001909	            0.4
         126000	       0.001917	            0.4
         126600	       0.001925	            0.4
         127200	       0.001933	            0.4
         127800	       0.001942	           0.41
         128400	        0.00195	           0.41
         129000	        0.00196	           0.41
         129600	       0.001968	           0.41
         130200	       0.001976	           0.41
         130800	       0.001985	           0.41
         131400	       0.001992	           0.42
         132000	       0.002001	           0.42
         132600	       0.002009	           0.42
         133200	       0.002018	           0.42
         133800	       0.002026	           0.42
         134400	       0.002033	           0.43
         135000	       0.002042	           0.43
         135600	        0.00205	           0.43
         136200	       0.002059	           0.43
         136800	       0.002067	           0.43
         137400	       0.002076	           0.44
         138000	       0.002084	           0.44
         138600	       0.002093	           0.44
         139200	       0.002101	           0.44
         139800	       0.002109	           0.44
         140400	       0.002117	           0.45
         141000	       0.002125	           0.45
         141600	       0.002134	           0.45
         142200	       0.002142	           0.45
         142800	       0.002151	           0.45
         143400	       0.002159	           0.45
         144000	       0.002166	           0.46
         144600	       0.002175	           0.46
         145200	       0.002183	           0.46
         145800	       0.002192	           0.46
         146400	         0.0022	           0.46
         147000	       0.002209	           0.47
         147600	       0.002216	           0.47
         148200	       0.002224	           0.47
         148800	       0.002233	           0.47
         149400	       0.002241	           0.47
         150000	       0.002259	           0.48
         150600	       0.002268	           0.48
         151200	       0.002277	           0.48
         151800	       0.002285	           0.48
         152400	       0.002294	           0.48
         153000	       0.002302	           0.49
         153600	       0.002311	           0.49
         154200	       0.002325	           0.49
         154800	       0.002334	           0.49
         155400	       0.002342	           0.49
         156000	        0.00235	           0.49
         156600	       0.002358	            0.5
         157200	       0.002367	            0.5
         157800	       0.002375	            0.5
         158400	       0.002383	            0.5
         159000	       0.002392	            0.5
         159600	         0.0024	           0.51
         160200	       0.002409	           0.51
         160800	       0.002417	           0.51
         161400	       0.002425	           0.51
         162000	       0.002433	           0.51
         162600	       0.002442	           0.52
         163200	        0.00245	           0.52
         163800	       0.002458	           0.52
         164400	       0.002467	           0.52
         165000	       0.002475	           0.52
         165600	       0.002483	           0.53
         166200	       0.002491	           0.53
         166800	         0.0025	           0.53
         167400	       0.002509	           0.53
         168000	       0.002518	           0.53
         168600	       0.002527	           0.53
         169200	       0.002535	           0.54
         169800	       0.002543	           0.54
         170400	       0.002551	           0.54
         171000	        0.00256	           0.54
         171600	       0.002568	           0.54
         172200	       0.002577	           0.55
         172800	       0.002584	           0.55
         173400	       0.002594	           0.55
         174000	       0.002602	           0.55
         174600	        0.00261	           0.55
         175200	       0.002619	           0.56
         175800	       0.002627	           0.56
         176400	       0.002635	           0.56
         177000	       0.002643	           0.56
         177600	       0.002652	           0.56
         178200	        0.00266	           0.57
         178800	       0.002668	           0.57
         179400	       0.002677	           0.57
         180000	       0.002685	           0.57
         180600	       0.002694	           0.57
         181200	       0.002702	           0.57
         181800	       0.002711	           0.58
         182400	       0.002719	           0.58
         183000	       0.002728	           0.58
         183600	       0.002737	           0.58
         184200	       0.002745	           0.58
         184800	       0.002753	           0.59
         185400	       0.002761	           0.59
         186000	        0.00277	           0.59
         186600	       0.002778	           0.59
         187200	       0.002787	           0.59
         187800	       0.002795	            0.6
         188400	       0.002802	            0.6
         189000	       0.002811	            0.6
         189600	       0.002819	            0.6
         190200	       0.002828	            0.6
         190800	       0.002836	           0.61
         191400	       0.002845	           0.61
         192000	       0.002853	           0.61
         192600	       0.002862	           0.61
         193200	        0.00287	           0.61
         193800	       0.002878	           0.61
         194400	       0.002887	           0.62
         195000	       0.002895	           0.62
         195600	       0.002904	           0.62
         196200	       0.002912	           0.62
         196800	       0.002921	           0.62
         197400	       0.002929	           0.63
         198000	       0.002937	           0.63
         198600	       0.002946	           0.63
         199200	       0.002954	           0.63
         199800	       0.002962	           0.63
         200400	        0.00297	           0.64
         201000	       0.002979	           0.64
         201600	       0.002987	           0.64
         202200	       0.002996	           0.64
         202800	       0.003004	           0.64
         203400	       0.003012	           0.64
         204000	       0.003021	           0.65
         204600	       0.003029	           0.65
         205200	        0.00304	           0.65
         205800	       0.003048	           0.65
         206400	       0.003057	           0.65
         207000	       0.003065	           0.66
         207600	       0.003074	           0.66
         208200	       0.003082	           0.66
         208800	       0.003091	           0.66
         209400	       0.003099	           0.66
         210000	       0.003107	           0.67
         210600	       0.003116	           0.67
         211200	       0.003124	           0.67
         211800	       0.003133	           0.67
         212400	       0.003141	           0.67
         213000	        0.00315	           0.68
         213600	       0.003158	           0.68
         214200	       0.003166	           0.68
         214800	       0.003174	           0.68
         215400	       0.003182	           0.68
         216000	       0.003191	           0.68
         216600	       0.003199	           0.69
         217200	       0.003208	           0.69
         217800	       0.003216	           0.69
         218400	       0.003225	           0.69
         219000	       0.003233	           0.69
         219600	       0.003242	            0.7
         220200	       0.003257	            0.7
         220800	       0.003266	            0.7
         221400	       0.003275	            0.7
         222000	       0.003283	            0.7
         222600	       0.003292	           0.71
         223200	         0.0033	           0.71
         223800	       0.003309	           0.71
         224400	       0.003317	           0.71
         225000	       0.003326	           0.71
         225600	       0.003335	           0.72
         226200	       0.003343	           0.72
         226800	       0.003351	           0.72
         227400	       0.003359	           0.72
         228000	       0.003368	           0.72
         228600	       0.003376	           0.72
         229200	       0.003385	           0.73
         229800	       0.003393	           0.73
         230400	       0.003401	           0.73
         231000	        0.00341	           0.73
         231600	       0.003418	           0.73
         232200	       0.003427	           0.74
         232800	       0.003435	           0.74
         233400	       0.003444	           0.74
         234000	       0.003452	           0.74
         234600	       0.003461	           0.74
         235200	       0.003469	           0.75
         235800	       0.003477	           0.75
         236400	       0.003486	           0.75
         237000	       0.003494	           0.75
         237600	       0.003503	           0.75
         238200	       0.003511	           0.76
         238800	        0.00352	           0.76
         239400	       0.003528	           0.76
         240000	       0.003538	           0.76
         240600	       0.003547	           0.76
         241200	       0.003555	           0.76
         241800	       0.003563	           0.77
         242400	       0.003571	           0.77
         243000	        0.00358	           0.77
         243600	       0.003588	           0.77
         244200	       0.003597	           0.77
         244800	       0.003606	           0.78
         245400	       0.003616	           0.78
         246000	       0.003624	           0.78
         246600	       0.003632	           0.78
         247200	       0.003641	           0.78
         247800	       0.003649	           0.79
         248400	       0.003658	           0.79
         249000	       0.003666	           0.79
