   Simtime [s] 	   Realtime [s]	 Percentage [%]
          0.001	       5.228781	           0.02
          0.002	        7.57364	           0.04
          0.003	       12.15917	           0.06
          0.004	       16.79385	           0.08
          0.005	        21.4244	            0.1
          0.006	       26.05953	           0.12
          0.007	       30.51345	           0.14
          0.008	       33.71537	           0.16
          0.009	       36.67331	           0.18
           0.01	       39.61859	            0.2
          0.011	       42.56175	           0.22
          0.012	       45.51476	           0.24
          0.013	       48.45739	           0.26
          0.014	       51.41916	           0.28
          0.015	       54.36205	            0.3
          0.016	        57.3065	           0.32
          0.017	       60.25457	           0.34
          0.018	       63.19961	           0.36
          0.019	        66.1459	           0.38
           0.02	       69.10464	            0.4
          0.021	       72.05333	           0.42
          0.022	       75.00073	           0.44
          0.023	       77.95085	           0.46
          0.024	       80.90481	           0.48
          0.025	       83.86426	            0.5
          0.026	       86.81168	           0.52
          0.027	       89.76065	           0.54
          0.028	       92.70848	           0.56
          0.029	       95.65666	           0.58
           0.03	       98.60035	            0.6
          0.031	       101.5505	           0.62
          0.032	       104.4965	           0.64
          0.033	       107.4416	           0.66
          0.034	       110.3994	           0.68
          0.035	       113.3455	            0.7
          0.036	       116.3147	           0.72
          0.037	       119.2589	           0.74
          0.038	       122.2043	           0.76
          0.039	       125.1469	           0.78
           0.04	       128.0922	            0.8
          0.041	       131.0374	           0.82
          0.042	       133.9809	           0.84
          0.043	       136.9277	           0.86
          0.044	        139.869	           0.88
          0.045	       142.8357	            0.9
          0.046	       145.7862	           0.92
          0.047	       148.7332	           0.94
          0.048	       151.6795	           0.96
          0.049	       154.6267	           0.98
           0.05	       157.5723	              1
          0.051	       160.5208	              1
          0.052	       163.4689	              1
          0.053	       166.4189	            1.1
          0.054	       169.3654	            1.1
          0.055	         172.31	            1.1
          0.056	       175.2549	            1.1
          0.057	       178.2043	            1.1
          0.058	       181.1513	            1.2
          0.059	       184.0959	            1.2
           0.06	       187.0644	            1.2
          0.061	       190.0124	            1.2
          0.062	       192.9568	            1.2
          0.063	        195.902	            1.3
          0.064	       198.8496	            1.3
          0.065	       201.7979	            1.3
          0.066	        204.747	            1.3
          0.067	       207.6923	            1.3
          0.068	       210.6418	            1.4
          0.069	       213.5865	            1.4
           0.07	       216.5323	            1.4
          0.071	       219.4786	            1.4
          0.072	       222.4236	            1.4
          0.073	       225.3694	            1.5
          0.074	       228.3148	            1.5
          0.075	       231.2632	            1.5
          0.076	       234.2077	            1.5
          0.077	       237.1551	            1.5
          0.078	       240.1014	            1.6
          0.079	       243.0472	            1.6
           0.08	            246	            1.6
          0.081	       248.9441	            1.6
          0.082	       251.8924	            1.6
          0.083	        254.848	            1.7
          0.084	       257.7942	            1.7
          0.085	       260.4237	            1.7
          0.086	       260.6445	            1.7
          0.087	       260.6928	            1.7
          0.088	       260.7654	            1.8
          0.089	       260.8084	            1.8
           0.09	       262.4536	            1.8
          0.091	       262.5672	            1.8
          0.092	       262.7006	            1.8
          0.093	       262.7588	            1.9
          0.094	       262.8571	            1.9
          0.095	       263.0529	            1.9
          0.096	       263.2087	            1.9
          0.097	       263.3254	            1.9
          0.098	       263.3815	              2
          0.099	       263.5036	              2
            0.1	       264.6536	              2
          0.101	       264.7044	              2
          0.102	        264.746	              2
          0.103	       265.3989	            2.1
          0.104	       265.5297	            2.1
          0.105	       266.3958	            2.1
          0.106	       266.5433	            2.1
          0.107	       266.9003	            2.1
          0.108	       266.9487	            2.2
          0.109	       267.3555	            2.2
           0.11	       267.8097	            2.2
          0.111	       268.1595	            2.2
          0.112	       268.2081	            2.2
          0.113	        268.548	            2.3
          0.114	       268.6749	            2.3
          0.115	       269.1075	            2.3
          0.116	       269.2269	            2.3
          0.117	       269.5624	            2.3
          0.118	       269.6109	            2.4
          0.119	       270.0174	            2.4
           0.12	       270.4267	            2.4
          0.121	       270.7678	            2.4
          0.122	       270.8372	            2.4
          0.123	       271.1742	            2.5
          0.124	       271.2964	            2.5
          0.125	        271.721	            2.5
          0.126	       271.8491	            2.5
          0.127	         272.19	            2.5
          0.128	       272.2498	            2.6
          0.129	        272.651	            2.6
           0.13	       273.0615	            2.6
          0.131	       273.4086	            2.6
          0.132	       273.4561	            2.6
          0.133	       273.7905	            2.7
          0.134	       273.9066	            2.7
          0.135	       274.3362	            2.7
          0.136	       274.4553	            2.7
          0.137	       274.7899	            2.7
          0.138	       274.8482	            2.8
          0.139	       275.2661	            2.8
           0.14	       275.6781	            2.8
          0.141	       276.0288	            2.8
          0.142	       276.0772	            2.8
          0.143	       276.4265	            2.9
          0.144	       276.5575	            2.9
          0.145	       276.9823	            2.9
          0.146	       277.1148	            2.9
          0.147	       277.4546	            2.9
          0.148	       277.5226	              3
          0.149	       277.9315	              3
           0.15	       278.2477	              3
          0.151	       278.5925	              3
          0.152	       278.6395	              3
          0.153	       278.9736	            3.1
          0.154	       279.1076	            3.1
          0.155	       279.5245	            3.1
          0.156	       279.6574	            3.1
          0.157	       279.9987	            3.1
          0.158	        280.067	            3.2
          0.159	       280.4704	            3.2
           0.16	       280.8789	            3.2
          0.161	       281.2155	            3.2
          0.162	        281.265	            3.2
          0.163	       281.6248	            3.3
          0.164	       281.7505	            3.3
          0.165	        282.169	            3.3
          0.166	       282.2947	            3.3
          0.167	        282.632	            3.3
          0.168	       282.6909	            3.4
          0.169	       283.0987	            3.4
           0.17	       283.5128	            3.4
          0.171	       283.8548	            3.4
          0.172	       283.9227	            3.4
          0.173	       284.2638	            3.5
          0.174	        284.377	            3.5
          0.175	       284.7977	            3.5
          0.176	        284.913	            3.5
          0.177	       285.2526	            3.5
          0.178	       285.3008	            3.6
          0.179	       285.7001	            3.6
           0.18	       286.1204	            3.6
          0.181	       286.4552	            3.6
          0.182	       286.5031	            3.6
          0.183	       286.8392	            3.7
          0.184	       286.9688	            3.7
          0.185	       287.3867	            3.7
          0.186	       287.4988	            3.7
          0.187	       287.8382	            3.7
          0.188	       287.8985	            3.8
          0.189	       288.3017	            3.8
           0.19	       288.7089	            3.8
          0.191	       289.0493	            3.8
          0.192	       289.0969	            3.8
          0.193	       289.4446	            3.9
          0.194	       289.5604	            3.9
          0.195	       289.9765	            3.9
          0.196	       290.1003	            3.9
          0.197	       290.4379	            3.9
          0.198	        290.487	              4
          0.199	       290.8897	              4
            0.2	       291.3009	              4
          0.201	       291.6369	              4
          0.202	       291.6938	              4
          0.203	       292.0314	            4.1
          0.204	       292.1464	            4.1
          0.205	       292.5688	            4.1
          0.206	       292.6762	            4.1
          0.207	       293.0096	            4.1
          0.208	       293.0697	            4.2
          0.209	       293.4757	            4.2
           0.21	       293.8791	            4.2
          0.211	        294.232	            4.2
          0.212	       294.2796	            4.2
          0.213	        294.616	            4.3
          0.214	       294.7349	            4.3
          0.215	       295.1481	            4.3
          0.216	       295.2582	            4.3
          0.217	       295.5992	            4.3
          0.218	       295.6459	            4.4
          0.219	       296.0504	            4.4
           0.22	       296.4691	            4.4
          0.221	        296.813	            4.4
          0.222	       296.8605	            4.4
          0.223	       297.2036	            4.5
          0.224	       297.3295	            4.5
          0.225	       297.7612	            4.5
          0.226	       297.8796	            4.5
          0.227	       298.2135	            4.5
          0.228	       298.2635	            4.6
          0.229	       298.6692	            4.6
           0.23	       299.0733	            4.6
          0.231	       299.4129	            4.6
          0.232	       299.4619	            4.6
          0.233	       299.8113	            4.7
          0.234	       299.9497	            4.7
          0.235	       300.3625	            4.7
          0.236	       300.4707	            4.7
          0.237	       300.8223	            4.7
          0.238	       300.8698	            4.8
          0.239	       301.2873	            4.8
           0.24	       301.6903	            4.8
          0.241	       302.0327	            4.8
          0.242	       302.0798	            4.8
          0.243	       302.4143	            4.9
          0.244	       302.5339	            4.9
          0.245	       302.9542	            4.9
          0.246	       303.0628	            4.9
          0.247	       303.4137	            4.9
          0.248	       303.4715	              5
          0.249	       303.8779	              5
           0.25	       304.3091	              5
          0.251	        304.645	              5
          0.252	       304.7031	              5
          0.253	       305.0509	            5.1
          0.254	       305.1625	            5.1
          0.255	       305.5815	            5.1
          0.256	       305.6878	            5.1
          0.257	       306.0254	            5.1
          0.258	       306.0826	            5.2
          0.259	       306.4903	            5.2
           0.26	       306.9248	            5.2
          0.261	       307.2655	            5.2
          0.262	       307.3264	            5.2
          0.263	       307.6695	            5.3
          0.264	       307.7937	            5.3
          0.265	       308.2193	            5.3
          0.266	       308.3288	            5.3
          0.267	       308.6738	            5.3
          0.268	       308.7225	            5.4
          0.269	       309.1251	            5.4
           0.27	       309.5462	            5.4
          0.271	       309.8857	            5.4
          0.272	       309.9328	            5.4
          0.273	       310.2719	            5.5
          0.274	       310.3976	            5.5
          0.275	       310.8227	            5.5
          0.276	        310.928	            5.5
          0.277	       311.2668	            5.5
          0.278	        311.315	            5.6
          0.279	       311.7207	            5.6
           0.28	       312.1496	            5.6
          0.281	       312.4881	            5.6
          0.282	       312.5361	            5.6
          0.283	       312.8778	            5.7
          0.284	       313.0128	            5.7
          0.285	       313.4392	            5.7
          0.286	       313.5578	            5.7
          0.287	       313.8949	            5.7
          0.288	       313.9428	            5.8
          0.289	       314.3489	            5.8
           0.29	       314.7611	            5.8
          0.291	       315.1011	            5.8
          0.292	       315.1585	            5.8
          0.293	       315.4975	            5.9
          0.294	       315.6378	            5.9
          0.295	       316.0612	            5.9
          0.296	       316.1819	            5.9
          0.297	       316.5493	            5.9
          0.298	       316.5963	              6
          0.299	       317.0105	              6
            0.3	       317.4141	              6
          0.301	       317.7589	              6
          0.302	       317.8084	              6
          0.303	       318.1425	            6.1
          0.304	       318.2626	            6.1
          0.305	       318.6757	            6.1
          0.306	       318.7225	            6.1
          0.307	        319.122	            6.1
          0.308	       319.1689	            6.2
          0.309	       319.5714	            6.2
           0.31	       319.9777	            6.2
          0.311	       320.3227	            6.2
          0.312	       320.3688	            6.2
          0.313	       320.6994	            6.3
          0.314	       320.8257	            6.3
          0.315	       321.2485	            6.3
          0.316	       321.3182	            6.3
          0.317	       321.7112	            6.3
          0.318	       321.7588	            6.4
          0.319	       322.1702	            6.4
           0.32	       322.5819	            6.4
          0.321	       322.9215	            6.4
          0.322	       322.9701	            6.4
          0.323	       323.3088	            6.5
          0.324	       323.4349	            6.5
          0.325	       323.8536	            6.5
          0.326	       323.9007	            6.5
          0.327	       324.3012	            6.5
          0.328	       324.3477	            6.6
          0.329	       324.7544	            6.6
           0.33	       325.1571	            6.6
          0.331	       325.4994	            6.6
          0.332	       325.5465	            6.6
          0.333	       325.8813	            6.7
          0.334	       326.0058	            6.7
          0.335	       326.4264	            6.7
          0.336	       326.4835	            6.7
          0.337	       326.8842	            6.7
          0.338	       326.9426	            6.8
          0.339	       327.3467	            6.8
           0.34	        327.778	            6.8
          0.341	       328.1134	            6.8
          0.342	       328.1711	            6.8
          0.343	       328.5102	            6.9
          0.344	       328.6346	            6.9
          0.345	       329.0657	            6.9
          0.346	       329.1232	            6.9
          0.347	       329.5187	            6.9
          0.348	       329.5778	              7
          0.349	       329.9844	              7
           0.35	       330.3887	              7
          0.351	       330.7284	              7
          0.352	       330.7864	              7
          0.353	       331.1371	            7.1
          0.354	       331.2517	            7.1
          0.355	       331.6666	            7.1
          0.356	       331.7253	            7.1
          0.357	       332.1246	            7.1
          0.358	       332.1714	            7.2
          0.359	       332.5722	            7.2
           0.36	       332.9821	            7.2
          0.361	        333.323	            7.2
          0.362	       333.3711	            7.2
          0.363	       333.7072	            7.3
          0.364	       333.8215	            7.3
          0.365	       334.2521	            7.3
          0.366	       334.3005	            7.3
          0.367	       334.6931	            7.3
          0.368	        334.741	            7.4
          0.369	       335.1498	            7.4
           0.37	       335.5676	            7.4
          0.371	       335.9162	            7.4
          0.372	       335.9634	            7.4
          0.373	       336.3033	            7.5
          0.374	       336.4213	            7.5
          0.375	       336.8406	            7.5
          0.376	        336.888	            7.5
          0.377	       337.2874	            7.5
          0.378	       337.3351	            7.6
          0.379	       337.7396	            7.6
           0.38	       338.1575	            7.6
          0.381	       338.4965	            7.6
          0.382	       338.5433	            7.6
          0.383	       338.8775	            7.7
          0.384	        338.995	            7.7
          0.385	       339.4136	            7.7
          0.386	       339.4639	            7.7
          0.387	       339.8667	            7.7
          0.388	       339.9152	            7.8
          0.389	       340.3214	            7.8
           0.39	       340.7116	            7.8
          0.391	       341.0735	            7.8
          0.392	       341.1555	            7.8
          0.393	       341.5012	            7.9
          0.394	       341.6309	            7.9
          0.395	       342.0452	            7.9
          0.396	       342.0908	            7.9
          0.397	       342.4897	            7.9
          0.398	        342.536	              8
          0.399	        342.941	              8
            0.4	       343.2642	              8
          0.401	       343.7139	              8
          0.402	       343.7618	              8
          0.403	       344.0938	            8.1
          0.404	        344.209	            8.1
          0.405	       344.6262	            8.1
          0.406	       344.6753	            8.1
          0.407	       345.0728	            8.1
          0.408	       345.1309	            8.2
          0.409	       345.5385	            8.2
           0.41	       345.8214	            8.2
          0.411	       346.3131	            8.2
          0.412	       346.3723	            8.2
          0.413	        346.711	            8.3
          0.414	       346.8277	            8.3
          0.415	       347.2439	            8.3
