   Simtime [s] 	   Realtime [s]	 Percentage [%]
          0.001	     0.09040456	           0.02
          0.002	      0.1297067	           0.04
          0.003	      0.2116444	           0.06
          0.004	      0.2943377	           0.08
          0.005	      0.3672736	            0.1
          0.006	      0.4415435	           0.12
          0.007	      0.5153407	           0.14
          0.008	      0.5662472	           0.16
          0.009	      0.6225854	           0.18
           0.01	      0.6792586	            0.2
          0.011	      0.7348224	           0.22
          0.012	      0.7828781	           0.24
          0.013	       0.829937	           0.26
          0.014	      0.8864852	           0.28
          0.015	      0.9434069	            0.3
          0.016	      0.9907221	           0.32
          0.017	       1.038041	           0.34
          0.018	       1.084924	           0.36
          0.019	       1.131511	           0.38
           0.02	       1.178731	            0.4
          0.021	       1.226814	           0.42
          0.022	       1.274418	           0.44
          0.023	       1.322311	           0.46
          0.024	       1.369826	           0.48
          0.025	       1.417419	            0.5
          0.026	       1.465276	           0.52
          0.027	       1.521658	           0.54
          0.028	       1.569239	           0.56
          0.029	       1.616596	           0.58
           0.03	       1.671762	            0.6
          0.031	       1.727557	           0.62
          0.032	       1.775018	           0.64
          0.033	       1.830792	           0.66
          0.034	        1.87823	           0.68
          0.035	       1.926077	            0.7
          0.036	       1.973389	           0.72
          0.037	       2.021299	           0.74
          0.038	       2.068536	           0.76
          0.039	       2.116256	           0.78
           0.04	       2.164107	            0.8
          0.041	       2.212612	           0.82
          0.042	       2.260101	           0.84
          0.043	       2.307996	           0.86
          0.044	       2.355194	           0.88
          0.045	       2.411033	            0.9
          0.046	       2.466964	           0.92
          0.047	       2.513996	           0.94
          0.048	       2.561754	           0.96
          0.049	       2.618318	           0.98
           0.05	       2.674095	              1
          0.051	       2.721524	              1
          0.052	       2.777637	              1
          0.053	       2.825026	            1.1
          0.054	        2.88108	            1.1
          0.055	       2.936793	            1.1
          0.056	       2.984552	            1.1
          0.057	       3.032661	            1.1
          0.058	       3.079858	            1.2
          0.059	       3.127809	            1.2
           0.06	       3.175896	            1.2
          0.061	       3.222449	            1.2
          0.062	       3.269277	            1.2
          0.063	       3.316891	            1.3
          0.064	       3.364322	            1.3
          0.065	       3.412372	            1.3
          0.066	       3.458851	            1.3
          0.067	        3.50702	            1.3
          0.068	       3.555034	            1.4
          0.069	       3.602395	            1.4
           0.07	       3.650277	            1.4
          0.071	       3.697709	            1.4
          0.072	       3.754027	            1.4
          0.073	        3.80061	            1.5
          0.074	       3.848691	            1.5
          0.075	       3.896177	            1.5
          0.076	       3.943079	            1.5
          0.077	       3.999075	            1.5
          0.078	       4.055478	            1.6
          0.079	       4.104003	            1.6
           0.08	       4.151405	            1.6
          0.081	        4.19971	            1.6
          0.082	       4.247336	            1.6
          0.083	       4.294362	            1.7
          0.084	        4.34161	            1.7
          0.085	       4.392144	            1.7
          0.086	       4.395969	            1.7
          0.087	       4.397231	            1.7
          0.088	       4.398479	            1.8
          0.089	       4.399488	            1.8
           0.09	       4.428458	            1.8
          0.091	       4.431774	            1.8
          0.092	       4.434017	            1.8
          0.093	       4.434923	            1.9
          0.094	       4.436855	            1.9
          0.095	        4.44022	            1.9
          0.096	       4.443773	            1.9
          0.097	       4.447137	            1.9
          0.098	        4.44815	              2
          0.099	       4.451063	              2
            0.1	       4.471444	              2
          0.101	       4.472548	              2
          0.102	       4.473465	              2
          0.103	        4.48443	            2.1
          0.104	        4.48643	            2.1
          0.105	        4.50175	            2.1
          0.106	       4.504235	            2.1
          0.107	       4.511737	            2.1
          0.108	       4.512735	            2.2
          0.109	       4.519075	            2.2
           0.11	       4.527422	            2.2
          0.111	       4.534337	            2.2
          0.112	       4.535305	            2.2
          0.113	       4.541538	            2.3
          0.114	       4.543464	            2.3
          0.115	         4.5512	            2.3
          0.116	       4.553109	            2.3
          0.117	       4.558383	            2.3
          0.118	       4.559346	            2.4
          0.119	       4.566995	            2.4
           0.12	       4.574815	            2.4
          0.121	       4.580175	            2.4
          0.122	       4.581087	            2.4
          0.123	       4.587154	            2.5
          0.124	        4.58911	            2.5
          0.125	       4.595492	            2.5
          0.126	       4.597934	            2.5
          0.127	       4.604764	            2.5
          0.128	       4.605702	            2.6
          0.129	       4.613404	            2.6
           0.13	       4.620752	            2.6
          0.131	       4.626819	            2.6
          0.132	       4.627784	            2.6
          0.133	       4.632988	            2.7
          0.134	       4.635904	            2.7
          0.135	       4.643827	            2.7
          0.136	       4.647423	            2.7
          0.137	       4.662523	            2.7
          0.138	       4.663541	            2.8
          0.139	       4.670701	            2.8
           0.14	       4.677874	            2.8
          0.141	       4.684032	            2.8
          0.142	       4.684992	            2.8
          0.143	       4.691007	            2.9
          0.144	       4.693155	            2.9
          0.145	       4.701153	            2.9
          0.146	       4.704224	            2.9
          0.147	       4.710598	            2.9
          0.148	       4.711568	              3
          0.149	       4.718361	              3
           0.15	       4.724111	              3
          0.151	       4.730058	              3
          0.152	       4.731047	              3
          0.153	       4.738378	            3.1
          0.154	       4.740317	            3.1
          0.155	       4.747575	            3.1
          0.156	       4.750547	            3.1
          0.157	       4.755902	            3.1
          0.158	       4.757044	            3.2
          0.159	       4.764082	            3.2
           0.16	       4.772488	            3.2
          0.161	       4.778546	            3.2
          0.162	       4.779593	            3.2
          0.163	       4.784906	            3.3
          0.164	        4.78777	            3.3
          0.165	       4.794895	            3.3
          0.166	       4.796785	            3.3
          0.167	        4.80301	            3.3
          0.168	       4.803857	            3.4
          0.169	       4.810985	            3.4
           0.17	       4.819388	            3.4
          0.171	       4.825733	            3.4
          0.172	       4.827041	            3.4
          0.173	       4.832222	            3.5
          0.174	       4.834055	            3.5
          0.175	       4.840946	            3.5
          0.176	       4.843715	            3.5
          0.177	       4.850008	            3.5
          0.178	       4.850984	            3.6
          0.179	       4.858221	            3.6
           0.18	       4.874108	            3.6
          0.181	        4.87952	            3.6
          0.182	        4.88055	            3.6
          0.183	        4.88646	            3.7
          0.184	       4.888474	            3.7
          0.185	       4.896604	            3.7
          0.186	       4.898655	            3.7
          0.187	       4.904874	            3.7
          0.188	       4.905746	            3.8
          0.189	       4.912891	            3.8
           0.19	       4.919825	            3.8
          0.191	       4.926318	            3.8
          0.192	       4.927244	            3.8
          0.193	        4.93416	            3.9
          0.194	       4.936217	            3.9
          0.195	       4.943143	            3.9
          0.196	       4.945075	            3.9
          0.197	       4.951068	            3.9
          0.198	       4.951954	              4
          0.199	       4.958035	              4
            0.2	       4.965108	              4
          0.201	       4.981174	              4
          0.202	       4.982196	              4
          0.203	       4.988134	            4.1
          0.204	       4.990539	            4.1
          0.205	       4.998143	            4.1
          0.206	       5.000355	            4.1
          0.207	       5.006402	            4.1
          0.208	       5.007354	            4.2
          0.209	       5.014539	            4.2
           0.21	       5.026771	            4.2
          0.211	       5.032727	            4.2
          0.212	       5.033692	            4.2
          0.213	       5.040388	            4.3
          0.214	       5.042273	            4.3
          0.215	       5.048582	            4.3
          0.216	        5.05167	            4.3
          0.217	       5.057547	            4.3
          0.218	       5.059204	            4.4
          0.219	       5.066623	            4.4
           0.22	        5.07405	            4.4
          0.221	       5.079709	            4.4
          0.222	       5.080557	            4.4
          0.223	       5.085793	            4.5
          0.224	       5.089246	            4.5
          0.225	       5.096724	            4.5
          0.226	       5.098708	            4.5
          0.227	       5.105386	            4.5
          0.228	       5.106386	            4.6
          0.229	       5.113515	            4.6
           0.23	        5.12053	            4.6
          0.231	       5.135699	            4.6
          0.232	       5.136648	            4.6
          0.233	       5.143129	            4.7
          0.234	        5.14591	            4.7
          0.235	       5.153083	            4.7
          0.236	       5.156102	            4.7
          0.237	       5.163618	            4.7
          0.238	        5.16458	            4.8
          0.239	        5.17155	            4.8
           0.24	       5.178378	            4.8
          0.241	       5.184757	            4.8
          0.242	       5.185616	            4.8
          0.243	       5.191844	            4.9
          0.244	       5.193862	            4.9
          0.245	       5.202898	            4.9
          0.246	       5.205435	            4.9
          0.247	       5.211131	            4.9
          0.248	       5.212055	              5
          0.249	       5.219098	              5
           0.25	       5.228203	              5
          0.251	       5.233558	              5
          0.252	       5.234413	              5
          0.253	       5.240265	            5.1
          0.254	       5.242953	            5.1
          0.255	       5.249521	            5.1
          0.256	       5.251191	            5.1
          0.257	       5.257375	            5.1
          0.258	        5.25826	            5.2
          0.259	       5.265358	            5.2
           0.26	       5.272978	            5.2
          0.261	       5.279038	            5.2
          0.262	       5.279873	            5.2
          0.263	       5.285453	            5.3
          0.264	       5.287539	            5.3
          0.265	       5.294786	            5.3
          0.266	       5.296743	            5.3
          0.267	       5.303086	            5.3
          0.268	       5.303918	            5.4
          0.269	       5.311664	            5.4
           0.27	       5.318995	            5.4
          0.271	       5.324282	            5.4
          0.272	       5.325183	            5.4
          0.273	       5.331227	            5.5
          0.274	       5.333009	            5.5
          0.275	       5.341123	            5.5
          0.276	       5.343016	            5.5
          0.277	       5.349382	            5.5
          0.278	       5.350502	            5.6
          0.279	       5.357696	            5.6
           0.28	       5.364705	            5.6
          0.281	       5.370545	            5.6
          0.282	        5.37142	            5.6
          0.283	       5.377425	            5.7
          0.284	       5.380871	            5.7
          0.285	       5.388336	            5.7
          0.286	        5.39022	            5.7
          0.287	       5.396313	            5.7
          0.288	       5.397269	            5.8
          0.289	       5.403367	            5.8
           0.29	       5.410655	            5.8
          0.291	       5.417321	            5.8
          0.292	       5.418411	            5.8
          0.293	       5.424641	            5.9
          0.294	        5.42669	            5.9
          0.295	       5.433712	            5.9
          0.296	       5.435132	            5.9
          0.297	       5.440742	            5.9
          0.298	       5.441623	              6
          0.299	       5.448752	              6
            0.3	       5.456253	              6
          0.301	       5.462313	              6
          0.302	       5.463209	              6
          0.303	        5.46907	            6.1
          0.304	       5.471267	            6.1
          0.305	       5.477519	            6.1
          0.306	       5.478457	            6.1
          0.307	       5.485091	            6.1
          0.308	       5.485937	            6.2
          0.309	       5.493652	            6.2
           0.31	       5.500765	            6.2
          0.311	       5.506779	            6.2
          0.312	        5.50765	            6.2
          0.313	       5.512839	            6.3
          0.314	       5.514758	            6.3
          0.315	       5.522271	            6.3
          0.316	       5.523707	            6.3
          0.317	       5.530869	            6.3
          0.318	       5.531715	            6.4
          0.319	       5.538884	            6.4
           0.32	       5.546232	            6.4
          0.321	       5.551457	            6.4
          0.322	       5.552376	            6.4
          0.323	       5.558103	            6.5
          0.324	       5.561107	            6.5
          0.325	       5.568335	            6.5
          0.326	       5.569188	            6.5
          0.327	        5.57595	            6.5
          0.328	        5.57691	            6.6
          0.329	       5.583909	            6.6
           0.33	       5.590674	            6.6
          0.331	       5.597089	            6.6
          0.332	       5.598047	            6.6
          0.333	       5.604174	            6.7
          0.334	       5.605975	            6.7
          0.335	       5.612977	            6.7
          0.336	       5.613841	            6.7
          0.337	       5.620382	            6.7
          0.338	       5.621265	            6.8
          0.339	       5.627383	            6.8
           0.34	       5.634994	            6.8
          0.341	       5.640259	            6.8
          0.342	       5.651165	            6.8
          0.343	       5.657244	            6.9
          0.344	       5.659216	            6.9
          0.345	       5.666061	            6.9
          0.346	       5.666983	            6.9
          0.347	       5.673857	            6.9
          0.348	       5.674721	              7
          0.349	       5.681742	              7
           0.35	        5.68908	              7
          0.351	       5.694894	              7
          0.352	       5.696316	              7
          0.353	       5.701953	            7.1
          0.354	       5.703673	            7.1
          0.355	       5.710876	            7.1
          0.356	       5.711713	            7.1
          0.357	       5.718935	            7.1
          0.358	       5.719819	            7.2
          0.359	       5.727361	            7.2
           0.36	       5.734612	            7.2
          0.361	       5.739826	            7.2
          0.362	       5.740651	            7.2
          0.363	       5.745776	            7.3
          0.364	       5.748334	            7.3
          0.365	        5.75557	            7.3
          0.366	         5.7565	            7.3
          0.367	       5.763298	            7.3
          0.368	       5.764269	            7.4
          0.369	        5.77143	            7.4
           0.37	       5.778333	            7.4
          0.371	       5.784518	            7.4
          0.372	       5.785396	            7.4
          0.373	       5.791527	            7.5
          0.374	       5.794496	            7.5
          0.375	       5.801134	            7.5
          0.376	       5.802023	            7.5
          0.377	       5.809154	            7.5
          0.378	       5.810073	            7.6
          0.379	       5.817132	            7.6
           0.38	       5.825705	            7.6
          0.381	       5.831807	            7.6
          0.382	       5.832683	            7.6
          0.383	       5.837826	            7.7
          0.384	       5.840847	            7.7
          0.385	       5.848024	            7.7
          0.386	       5.849382	            7.7
          0.387	       5.855441	            7.7
          0.388	       5.856311	            7.8
          0.389	       5.863637	            7.8
           0.39	       5.871147	            7.8
          0.391	       5.877764	            7.8
          0.392	       5.878702	            7.8
          0.393	       5.885019	            7.9
          0.394	       5.887781	            7.9
          0.395	        5.89411	            7.9
          0.396	       5.895007	            7.9
          0.397	       5.901666	            7.9
          0.398	       5.912388	              8
          0.399	        5.91972	              8
            0.4	       5.925777	              8
          0.401	       5.933346	              8
          0.402	       5.934267	              8
          0.403	       5.939413	            8.1
          0.404	       5.941212	            8.1
          0.405	       5.948123	            8.1
          0.406	       5.949048	            8.1
          0.407	        5.95631	            8.1
          0.408	       5.957305	            8.2
          0.409	        5.96474	            8.2
           0.41	       5.970054	            8.2
          0.411	       5.978148	            8.2
          0.412	       5.979129	            8.2
          0.413	       5.984956	            8.3
          0.414	       5.986841	            8.3
          0.415	       5.994796	            8.3
