   Simtime [s] 	   Realtime [s]	 Percentage [%]
          0.001	      0.1169433	           0.02
          0.002	      0.1569044	           0.04
          0.003	       0.247222	           0.06
          0.004	      0.3344976	           0.08
          0.005	      0.4193632	            0.1
          0.006	      0.5016031	           0.12
          0.007	      0.5834028	           0.14
          0.008	      0.6373603	           0.16
          0.009	      0.6952483	           0.18
           0.01	       0.752501	            0.2
          0.011	       0.811562	           0.22
          0.012	      0.8680928	           0.24
          0.013	      0.9239143	           0.26
          0.014	      0.9743022	           0.28
          0.015	       1.024082	            0.3
          0.016	        1.08109	           0.32
          0.017	       1.129369	           0.34
          0.018	       1.185233	           0.36
          0.019	       1.233919	           0.38
           0.02	       1.282621	            0.4
          0.021	       1.340234	           0.42
          0.022	       1.398023	           0.44
          0.023	        1.44657	           0.46
          0.024	       1.503389	           0.48
          0.025	       1.561072	            0.5
          0.026	       1.619383	           0.52
          0.027	       1.675598	           0.54
          0.028	       1.732224	           0.56
          0.029	        1.78087	           0.58
           0.03	       1.830934	            0.6
          0.031	        1.88917	           0.62
          0.032	       1.937503	           0.64
          0.033	       1.996934	           0.66
          0.034	       2.054982	           0.68
          0.035	       2.103438	            0.7
          0.036	       2.161189	           0.72
          0.037	       2.219841	           0.74
          0.038	       2.277404	           0.76
          0.039	       2.335072	           0.78
           0.04	       2.392846	            0.8
          0.041	       2.451927	           0.82
          0.042	       2.510141	           0.84
          0.043	        2.55885	           0.86
          0.044	       2.616822	           0.88
          0.045	       2.676489	            0.9
          0.046	       2.725079	           0.92
          0.047	       2.782951	           0.94
          0.048	       2.840898	           0.96
          0.049	       2.889675	           0.98
           0.05	       2.947131	              1
          0.051	       3.005034	              1
          0.052	       3.063074	              1
          0.053	       3.121496	            1.1
          0.054	       3.179876	            1.1
          0.055	       3.236692	            1.1
          0.056	       3.284936	            1.1
          0.057	       3.343527	            1.1
          0.058	        3.39184	            1.2
          0.059	       3.440306	            1.2
           0.06	       3.498844	            1.2
          0.061	       3.558493	            1.2
          0.062	       3.607037	            1.2
          0.063	       3.655113	            1.3
          0.064	       3.712065	            1.3
          0.065	       3.768606	            1.3
          0.066	       3.825921	            1.3
          0.067	       3.882165	            1.3
          0.068	       3.945874	            1.4
          0.069	       3.995107	            1.4
           0.07	       4.050212	            1.4
          0.071	       4.104913	            1.4
          0.072	       4.163244	            1.4
          0.073	        4.21417	            1.5
          0.074	       4.271653	            1.5
          0.075	        4.32835	            1.5
          0.076	       4.385386	            1.5
          0.077	       4.434853	            1.5
          0.078	       4.485226	            1.6
          0.079	       4.543678	            1.6
           0.08	       4.600517	            1.6
          0.081	       4.658265	            1.6
          0.082	       4.714891	            1.6
          0.083	       4.773563	            1.7
          0.084	       4.831293	            1.7
          0.085	       4.884429	            1.7
          0.086	        4.89042	            1.7
          0.087	        4.89263	            1.7
          0.088	       4.894766	            1.8
          0.089	       4.906617	            1.8
           0.09	       4.945261	            1.8
          0.091	        4.95791	            1.8
          0.092	       4.970837	            1.8
          0.093	       4.982532	            1.9
          0.094	       4.995318	            1.9
          0.095	        5.00175	            1.9
          0.096	       5.015113	            1.9
          0.097	       5.027541	            1.9
          0.098	       5.039652	              2
          0.099	       5.052658	              2
            0.1	       5.081194	              2
          0.101	       5.092994	              2
          0.102	       5.104751	              2
          0.103	       5.125792	            2.1
          0.104	       5.138872	            2.1
          0.105	         5.1663	            2.1
          0.106	       5.179494	            2.1
          0.107	       5.196334	            2.1
          0.108	       5.207607	            2.2
          0.109	        5.22496	            2.2
           0.11	       5.244488	            2.2
          0.111	       5.260084	            2.2
          0.112	       5.272165	            2.2
          0.113	       5.279226	            2.3
          0.114	       5.282381	            2.3
          0.115	       5.301141	            2.3
          0.116	       5.315538	            2.3
          0.117	       5.333514	            2.3
          0.118	       5.345212	            2.4
          0.119	       5.363426	            2.4
           0.12	       5.379967	            2.4
          0.121	       5.396304	            2.4
          0.122	       5.408048	            2.4
          0.123	       5.423574	            2.5
          0.124	       5.428123	            2.5
          0.125	         5.4477	            2.5
          0.126	       5.460626	            2.5
          0.127	       5.476885	            2.5
          0.128	       5.488509	            2.6
          0.129	       5.505323	            2.6
           0.13	       5.522455	            2.6
          0.131	       5.540254	            2.6
          0.132	       5.552126	            2.6
          0.133	       5.564316	            2.7
          0.134	       5.577303	            2.7
          0.135	       5.594891	            2.7
          0.136	       5.607486	            2.7
          0.137	        5.62368	            2.7
          0.138	       5.626049	            2.8
          0.139	       5.643029	            2.8
           0.14	       5.661809	            2.8
          0.141	       5.679151	            2.8
          0.142	       5.691041	            2.8
          0.143	       5.707308	            2.9
          0.144	       5.720539	            2.9
          0.145	        5.72937	            2.9
          0.146	       5.742479	            2.9
          0.147	       5.758427	            2.9
          0.148	        5.77051	              3
          0.149	       5.789274	              3
           0.15	       5.806055	              3
          0.151	       5.821902	              3
          0.152	       5.833508	              3
          0.153	       5.849229	            3.1
          0.154	       5.862135	            3.1
          0.155	       5.879569	            3.1
          0.156	       5.892444	            3.1
          0.157	       5.908628	            3.1
          0.158	       5.920502	            3.2
          0.159	       5.930871	            3.2
           0.16	       5.949859	            3.2
          0.161	       5.966206	            3.2
          0.162	       5.978154	            3.2
          0.163	       5.994551	            3.3
          0.164	       6.006694	            3.3
          0.165	       6.024122	            3.3
          0.166	       6.038935	            3.3
          0.167	       6.056152	            3.3
          0.168	       6.068201	            3.4
          0.169	       6.087309	            3.4
           0.17	       6.104672	            3.4
          0.171	       6.112319	            3.4
          0.172	       6.120964	            3.4
          0.173	       6.136891	            3.5
          0.174	        6.14986	            3.5
          0.175	       6.168434	            3.5
          0.176	       6.172937	            3.5
          0.177	       6.180375	            3.5
          0.178	       6.192397	            3.6
          0.179	       6.200777	            3.6
           0.18	       6.210373	            3.6
          0.181	         6.2269	            3.6
          0.182	       6.240464	            3.6
          0.183	       6.256312	            3.7
          0.184	       6.260913	            3.7
          0.185	       6.269552	            3.7
          0.186	       6.273819	            3.7
          0.187	       6.291449	            3.7
          0.188	       6.303375	            3.8
          0.189	       6.321683	            3.8
           0.19	       6.339566	            3.8
          0.191	        6.34668	            3.8
          0.192	       6.348628	            3.8
          0.193	       6.356288	            3.9
          0.194	       6.370472	            3.9
          0.195	        6.37845	            3.9
          0.196	        6.38305	            3.9
          0.197	       6.399334	            3.9
          0.198	       6.411387	              4
          0.199	        6.42818	              4
            0.2	       6.446102	              4
          0.201	       6.462715	              4
          0.202	       6.474576	              4
          0.203	       6.490705	            4.1
          0.204	       6.503789	            4.1
          0.205	       6.520906	            4.1
          0.206	       6.525408	            4.1
          0.207	       6.543032	            4.1
          0.208	       6.554767	            4.2
          0.209	       6.573281	            4.2
           0.21	       6.590515	            4.2
          0.211	       6.606478	            4.2
          0.212	       6.619586	            4.2
          0.213	       6.635134	            4.3
          0.214	       6.647338	            4.3
          0.215	       6.656519	            4.3
          0.216	       6.669301	            4.3
          0.217	       6.685512	            4.3
          0.218	       6.697748	            4.4
          0.219	       6.715334	            4.4
           0.22	       6.734408	            4.4
          0.221	       6.750184	            4.4
          0.222	       6.762361	            4.4
          0.223	       6.779542	            4.5
          0.224	       6.792286	            4.5
          0.225	       6.811661	            4.5
          0.226	       6.824131	            4.5
          0.227	       6.839802	            4.5
          0.228	       6.852068	            4.6
          0.229	       6.868912	            4.6
           0.23	       6.877648	            4.6
          0.231	       6.893425	            4.6
          0.232	       6.905608	            4.6
          0.233	       6.923161	            4.7
          0.234	       6.935786	            4.7
          0.235	       6.952261	            4.7
          0.236	       6.965408	            4.7
          0.237	       6.973067	            4.7
          0.238	       6.976371	            4.8
          0.239	       6.995049	            4.8
           0.24	       7.014013	            4.8
          0.241	       7.022007	            4.8
          0.242	       7.034143	            4.8
          0.243	       7.050576	            4.9
          0.244	       7.063544	            4.9
          0.245	       7.080806	            4.9
          0.246	       7.093479	            4.9
          0.247	       7.109325	            4.9
          0.248	       7.112505	              5
          0.249	        7.12999	              5
           0.25	       7.148923	              5
          0.251	       7.156566	              5
          0.252	       7.158755	              5
          0.253	       7.166239	            5.1
          0.254	       7.170347	            5.1
          0.255	       7.187595	            5.1
          0.256	       7.200564	            5.1
          0.257	       7.216215	            5.1
          0.258	       7.218467	            5.2
          0.259	       7.236802	            5.2
           0.26	       7.245087	            5.2
          0.261	       7.261425	            5.2
          0.262	       7.273023	            5.2
          0.263	       7.289189	            5.3
          0.264	       7.301941	            5.3
          0.265	       7.319429	            5.3
          0.266	       7.331997	            5.3
          0.267	        7.34806	            5.3
          0.268	       7.359803	            5.4
          0.269	       7.376858	            5.4
           0.27	       7.394207	            5.4
          0.271	       7.402168	            5.4
          0.272	       7.404227	            5.4
          0.273	        7.42203	            5.5
          0.274	       7.434604	            5.5
          0.275	       7.452113	            5.5
          0.276	       7.465131	            5.5
          0.277	       7.480587	            5.5
          0.278	       7.492406	            5.6
          0.279	       7.509629	            5.6
           0.28	       7.528159	            5.6
          0.281	       7.535453	            5.6
          0.282	       7.547482	            5.6
          0.283	       7.563504	            5.7
          0.284	       7.576336	            5.7
          0.285	       7.593757	            5.7
          0.286	       7.606382	            5.7
          0.287	       7.614239	            5.7
          0.288	       7.626191	            5.8
          0.289	       7.643465	            5.8
           0.29	       7.662161	            5.8
          0.291	       7.678429	            5.8
          0.292	       7.690435	            5.8
          0.293	       7.706679	            5.9
          0.294	       7.719672	            5.9
          0.295	        7.72869	            5.9
          0.296	        7.74101	            5.9
          0.297	       7.758065	            5.9
          0.298	       7.770357	              6
          0.299	       7.787352	              6
            0.3	       7.797068	              6
          0.301	        7.81282	              6
          0.302	       7.824378	              6
          0.303	       7.840767	            6.1
          0.304	       7.853662	            6.1
          0.305	       7.863008	            6.1
          0.306	       7.875169	            6.1
          0.307	       7.884913	            6.1
          0.308	       7.897105	            6.2
          0.309	       7.913717	            6.2
           0.31	       7.932512	            6.2
          0.311	       7.948619	            6.2
          0.312	       7.959847	            6.2
          0.313	        7.97615	            6.3
          0.314	       7.989093	            6.3
          0.315	       8.006461	            6.3
          0.316	       8.018087	            6.3
          0.317	       8.026618	            6.3
          0.318	       8.038409	            6.4
          0.319	       8.055693	            6.4
           0.32	       8.073173	            6.4
          0.321	       8.089107	            6.4
          0.322	       8.100487	            6.4
          0.323	        8.12499	            6.5
          0.324	       8.137307	            6.5
          0.325	       8.146543	            6.5
          0.326	        8.15862	            6.5
          0.327	       8.175219	            6.5
          0.328	       8.177287	            6.6
          0.329	       8.195386	            6.6
           0.33	       8.204819	            6.6
          0.331	       8.221487	            6.6
          0.332	       8.226795	            6.6
          0.333	       8.243206	            6.7
          0.334	       8.256149	            6.7
          0.335	       8.264723	            6.7
          0.336	       8.275761	            6.7
          0.337	       8.285483	            6.7
          0.338	       8.297343	            6.8
          0.339	       8.307209	            6.8
           0.34	       8.325851	            6.8
          0.341	       8.341796	            6.8
          0.342	       8.353942	            6.8
          0.343	       8.370122	            6.9
          0.344	       8.382941	            6.9
          0.345	       8.400486	            6.9
          0.346	       8.403868	            6.9
          0.347	       8.421318	            6.9
          0.348	       8.433105	              7
          0.349	       8.449852	              7
           0.35	       8.468355	              7
          0.351	       8.484548	              7
          0.352	       8.486718	              7
          0.353	       8.502521	            7.1
          0.354	       8.515274	            7.1
          0.355	       8.532589	            7.1
          0.356	       8.544418	            7.1
          0.357	       8.561759	            7.1
          0.358	       8.565016	            7.2
          0.359	       8.582121	            7.2
           0.36	       8.591194	            7.2
          0.361	       8.608536	            7.2
          0.362	       8.619746	            7.2
          0.363	       8.637369	            7.3
          0.364	        8.65051	            7.3
          0.365	       8.668912	            7.3
          0.366	       8.681079	            7.3
          0.367	       8.697973	            7.3
          0.368	       8.709875	            7.4
          0.369	       8.726914	            7.4
           0.37	       8.745548	            7.4
          0.371	       8.761745	            7.4
          0.372	       8.775244	            7.4
          0.373	       8.792395	            7.5
          0.374	       8.805232	            7.5
          0.375	       8.815211	            7.5
          0.376	       8.827137	            7.5
          0.377	       8.844181	            7.5
          0.378	       8.856401	            7.6
          0.379	       8.868253	            7.6
           0.38	       8.878755	            7.6
          0.381	       8.894784	            7.6
          0.382	       8.906885	            7.6
          0.383	       8.923112	            7.7
          0.384	       8.936035	            7.7
          0.385	       8.945131	            7.7
          0.386	       8.956807	            7.7
          0.387	       8.974014	            7.7
          0.388	       8.986404	            7.8
          0.389	       9.002861	            7.8
           0.39	       9.020654	            7.8
          0.391	       9.037126	            7.8
          0.392	        9.04897	            7.8
          0.393	       9.066589	            7.9
          0.394	       9.080852	            7.9
          0.395	       9.097588	            7.9
          0.396	       9.109667	            7.9
          0.397	       9.126183	            7.9
          0.398	       9.137936	              8
          0.399	       9.146812	              8
            0.4	       9.162575	              8
          0.401	       9.171449	              8
          0.402	       9.173572	              8
          0.403	        9.19108	            8.1
          0.404	       9.194913	            8.1
          0.405	       9.212396	            8.1
          0.406	       9.224482	            8.1
          0.407	       9.243496	            8.1
          0.408	       9.255523	            8.2
          0.409	       9.272723	            8.2
           0.41	       9.287584	            8.2
          0.411	       9.307426	            8.2
          0.412	       9.319086	            8.2
          0.413	       9.335134	            8.3
          0.414	       9.339334	            8.3
          0.415	       9.356605	            8.3
