   Simtime [s] 	   Realtime [s]	 Percentage [%]
          0.001	       0.304958	           0.01
          0.002	       0.452403	           0.02
          0.003	       0.752905	           0.03
          0.004	       1.050488	           0.04
          0.005	       1.359245	           0.05
          0.006	       1.657101	           0.06
          0.007	       1.941593	           0.07
          0.008	       2.147152	           0.08
          0.009	       2.337594	           0.09
           0.01	        2.52807	            0.1
          0.011	       2.717627	           0.11
          0.012	       2.907845	           0.12
          0.013	       3.096038	           0.13
          0.014	       3.287108	           0.14
          0.015	       3.476352	           0.15
          0.016	       3.667282	           0.16
          0.017	         3.8562	           0.17
          0.018	       4.046346	           0.18
          0.019	       4.235082	           0.19
           0.02	       4.425229	            0.2
          0.021	       4.614517	           0.21
          0.022	       4.803319	           0.22
          0.023	       4.994604	           0.23
          0.024	       5.182523	           0.24
          0.025	       5.374928	           0.25
          0.026	       5.565957	           0.26
          0.027	       5.757284	           0.27
          0.028	       5.946869	           0.28
          0.029	       6.135794	           0.29
           0.03	       6.324057	            0.3
          0.031	       6.513873	           0.31
          0.032	       6.703993	           0.32
          0.033	       6.892268	           0.33
          0.034	       7.082525	           0.34
          0.035	       7.272332	           0.35
          0.036	        7.46256	           0.36
          0.037	        7.66235	           0.37
          0.038	       7.851209	           0.38
          0.039	       8.039377	           0.39
           0.04	       8.230203	            0.4
          0.041	       8.419667	           0.41
          0.042	        8.60801	           0.42
          0.043	       8.798755	           0.43
          0.044	       8.987926	           0.44
          0.045	       9.178511	           0.45
          0.046	       9.369026	           0.46
          0.047	       9.559143	           0.47
          0.048	       9.751146	           0.48
          0.049	       9.939886	           0.49
           0.05	       10.13909	            0.5
          0.051	       10.32906	           0.51
          0.052	       10.51909	           0.52
          0.053	       10.70929	           0.53
          0.054	       10.89952	           0.54
          0.055	        11.0881	           0.55
          0.056	       11.27903	           0.56
          0.057	       11.46999	           0.57
          0.058	       11.65991	           0.58
          0.059	       11.84923	           0.59
           0.06	       12.04033	            0.6
          0.061	       12.22943	           0.61
          0.062	       12.41923	           0.62
          0.063	       12.60991	           0.63
          0.064	       12.80063	           0.64
          0.065	       12.99304	           0.65
          0.066	       13.18184	           0.66
          0.067	       13.37121	           0.67
          0.068	        13.5601	           0.68
          0.069	       13.75224	           0.69
           0.07	       13.94316	            0.7
          0.071	       14.13362	           0.71
          0.072	       14.32344	           0.72
          0.073	       14.52146	           0.73
          0.074	       14.71089	           0.74
          0.075	       14.90146	           0.75
          0.076	       15.10063	           0.76
          0.077	       15.29077	           0.77
          0.078	       15.48103	           0.78
          0.079	       15.67048	           0.79
           0.08	       15.85965	            0.8
          0.081	       16.04896	           0.81
          0.082	       16.23906	           0.82
          0.083	       16.42931	           0.83
          0.084	        16.6159	           0.84
          0.085	       16.78655	           0.85
          0.086	       16.79954	           0.86
          0.087	       16.80258	           0.87
          0.088	       16.80486	           0.88
          0.089	       16.80693	           0.89
           0.09	       16.91296	            0.9
          0.091	       16.91956	           0.91
          0.092	       16.92669	           0.92
          0.093	       16.92885	           0.93
          0.094	       16.93385	           0.94
          0.095	       16.94563	           0.95
          0.096	       16.95388	           0.96
          0.097	       16.96099	           0.97
          0.098	        16.9647	           0.98
          0.099	       16.97101	           0.99
            0.1	       17.04591	              1
          0.101	       17.04922	              1
          0.102	       17.10024	              1
          0.103	        17.1032	              1
          0.104	       17.12782	              1
          0.105	       17.16621	            1.1
          0.106	       17.19516	            1.1
          0.107	         17.198	            1.1
          0.108	       17.21976	            1.1
          0.109	       17.22625	            1.1
           0.11	       17.25468	            1.1
          0.111	       17.26007	            1.1
          0.112	       17.28044	            1.1
          0.113	       17.28292	            1.1
          0.114	       17.30716	            1.1
          0.115	       17.31667	            1.2
          0.116	       17.34161	            1.2
          0.117	       17.34399	            1.2
          0.118	       17.36389	            1.2
          0.119	       17.36995	            1.2
           0.12	       17.39686	            1.2
          0.121	       17.39923	            1.2
          0.122	       17.41886	            1.2
          0.123	       17.42107	            1.2
          0.124	       17.44581	            1.2
          0.125	       17.45456	            1.3
          0.126	       17.47822	            1.3
          0.127	       17.48033	            1.3
          0.128	       17.50998	            1.3
          0.129	       17.51615	            1.3
           0.13	       17.54343	            1.3
          0.131	       17.54588	            1.3
          0.132	       17.56699	            1.3
          0.133	       17.56929	            1.3
          0.134	       17.59454	            1.3
          0.135	       17.60123	            1.4
          0.136	       17.62493	            1.4
          0.137	       17.62715	            1.4
          0.138	        17.6471	            1.4
          0.139	       17.65597	            1.4
           0.14	       17.67956	            1.4
          0.141	       17.68321	            1.4
          0.142	       17.70321	            1.4
          0.143	       17.70547	            1.4
          0.144	       17.73068	            1.4
          0.145	       17.73707	            1.5
          0.146	       17.76058	            1.5
          0.147	       17.76275	            1.5
          0.148	       17.78545	            1.5
          0.149	       17.79131	            1.5
           0.15	       17.81165	            1.5
          0.151	       17.81428	            1.5
          0.152	       17.81652	            1.5
          0.153	       17.81945	            1.5
          0.154	       17.82708	            1.5
          0.155	       17.83328	            1.6
          0.156	       17.84093	            1.6
          0.157	        17.8432	            1.6
          0.158	       17.84526	            1.6
          0.159	       17.85139	            1.6
           0.16	       17.87879	            1.6
          0.161	       17.88103	            1.6
          0.162	       17.90109	            1.6
          0.163	       17.90332	            1.6
          0.164	       17.92892	            1.6
          0.165	       17.93584	            1.7
          0.166	       17.96161	            1.7
          0.167	       17.96514	            1.7
          0.168	       17.98563	            1.7
          0.169	        17.9915	            1.7
           0.17	       18.01826	            1.7
          0.171	       18.02049	            1.7
          0.172	       18.04024	            1.7
          0.173	       18.04235	            1.7
          0.174	       18.07721	            1.7
          0.175	       18.08573	            1.8
          0.176	       18.10882	            1.8
          0.177	       18.11103	            1.8
          0.178	       18.13088	            1.8
          0.179	       18.13702	            1.8
           0.18	       18.16485	            1.8
          0.181	       18.16747	            1.8
          0.182	       18.18841	            1.8
          0.183	       18.19052	            1.8
          0.184	        18.2261	            1.8
          0.185	       18.23283	            1.9
          0.186	       18.25613	            1.9
          0.187	       18.25845	            1.9
          0.188	       18.28169	            1.9
          0.189	       18.28763	            1.9
           0.19	       18.31291	            1.9
          0.191	       18.31542	            1.9
          0.192	       18.33625	            1.9
          0.193	       18.33838	            1.9
          0.194	       18.36232	            1.9
          0.195	       18.36869	              2
          0.196	        18.3918	              2
          0.197	       18.39407	              2
          0.198	       18.41653	              2
          0.199	       18.42327	              2
            0.2	       18.44857	              2
          0.201	       18.45078	              2
          0.202	       18.47175	              2
          0.203	       18.47398	              2
          0.204	       18.49808	              2
          0.205	       18.50511	            2.1
          0.206	       18.53499	            2.1
          0.207	       18.53866	            2.1
          0.208	       18.55929	            2.1
          0.209	       18.56579	            2.1
           0.21	       18.59404	            2.1
          0.211	        18.5963	            2.1
          0.212	       18.61937	            2.1
          0.213	       18.62172	            2.1
          0.214	       18.64705	            2.1
          0.215	       18.65408	            2.2
          0.216	       18.69055	            2.2
          0.217	       18.69389	            2.2
          0.218	       18.71473	            2.2
          0.219	       18.72444	            2.2
           0.22	       18.74996	            2.2
          0.221	       18.75245	            2.2
          0.222	       18.77221	            2.2
          0.223	       18.77426	            2.2
          0.224	       18.80072	            2.2
          0.225	       18.80725	            2.3
          0.226	       18.82981	            2.3
          0.227	       18.83204	            2.3
          0.228	       18.85275	            2.3
          0.229	       18.85871	            2.3
           0.23	       18.88441	            2.3
          0.231	       18.88681	            2.3
          0.232	       18.90657	            2.3
          0.233	       18.91908	            2.3
          0.234	       18.94575	            2.3
          0.235	       18.95249	            2.4
          0.236	       18.97701	            2.4
          0.237	       18.97931	            2.4
          0.238	       18.99902	            2.4
          0.239	        19.0072	            2.4
           0.24	       19.03159	            2.4
          0.241	       19.03402	            2.4
          0.242	       19.05706	            2.4
          0.243	       19.05942	            2.4
          0.244	       19.08342	            2.4
          0.245	       19.09013	            2.5
          0.246	       19.11485	            2.5
          0.247	       19.11711	            2.5
          0.248	       19.14098	            2.5
          0.249	        19.1478	            2.5
           0.25	       19.17168	            2.5
          0.251	       19.17419	            2.5
          0.252	       19.19816	            2.5
          0.253	       19.20064	            2.5
          0.254	       19.22457	            2.5
          0.255	       19.23268	            2.6
          0.256	        19.2572	            2.6
          0.257	        19.2597	            2.6
          0.258	       19.27964	            2.6
          0.259	       19.28609	            2.6
           0.26	       19.31248	            2.6
          0.261	        19.3148	            2.6
          0.262	       19.33487	            2.6
          0.263	       19.33727	            2.6
          0.264	       19.36252	            2.6
          0.265	       19.36932	            2.7
          0.266	       19.39384	            2.7
          0.267	       19.39627	            2.7
          0.268	       19.41622	            2.7
          0.269	       19.42324	            2.7
           0.27	       19.45122	            2.7
          0.271	       19.45385	            2.7
          0.272	       19.47403	            2.7
          0.273	       19.47633	            2.7
          0.274	       19.51302	            2.7
          0.275	       19.52202	            2.8
          0.276	       19.54555	            2.8
          0.277	       19.54792	            2.8
          0.278	       19.56786	            2.8
          0.279	       19.57423	            2.8
           0.28	       19.60193	            2.8
          0.281	       19.60439	            2.8
          0.282	       19.62611	            2.8
          0.283	       19.62857	            2.8
          0.284	       19.65447	            2.8
          0.285	       19.66193	            2.9
          0.286	       19.68562	            2.9
          0.287	       19.68788	            2.9
          0.288	       19.71101	            2.9
          0.289	       19.71747	            2.9
           0.29	       19.74256	            2.9
          0.291	       19.74504	            2.9
          0.292	       19.76646	            2.9
          0.293	       19.76871	            2.9
          0.294	       19.79314	            2.9
          0.295	       19.80018	              3
          0.296	       19.82261	              3
          0.297	       19.82673	              3
          0.298	       19.84938	              3
          0.299	       19.85607	              3
            0.3	       19.88128	              3
          0.301	       19.88361	              3
          0.302	       19.90512	              3
          0.303	       19.90763	              3
          0.304	       19.94256	              3
          0.305	       19.95006	            3.1
          0.306	       19.97379	            3.1
          0.307	       19.97964	            3.1
          0.308	       19.99956	            3.1
          0.309	       20.00601	            3.1
           0.31	       20.03269	            3.1
          0.311	        20.0351	            3.1
          0.312	       20.05529	            3.1
          0.313	       20.05767	            3.1
          0.314	       20.08194	            3.1
          0.315	       20.09892	            3.2
          0.316	       20.12139	            3.2
          0.317	       20.12676	            3.2
          0.318	       20.14659	            3.2
          0.319	       20.15448	            3.2
           0.32	       20.18128	            3.2
          0.321	       20.18389	            3.2
          0.322	       20.20421	            3.2
          0.323	        20.2065	            3.2
          0.324	       20.23344	            3.2
          0.325	       20.24057	            3.3
          0.326	        20.2606	            3.3
          0.327	       20.26645	            3.3
          0.328	       20.28795	            3.3
          0.329	       20.29415	            3.3
           0.33	       20.31992	            3.3
          0.331	       20.32294	            3.3
          0.332	       20.34361	            3.3
          0.333	       20.34643	            3.3
          0.334	       20.37332	            3.3
          0.335	       20.38024	            3.4
          0.336	       20.41007	            3.4
          0.337	       20.41738	            3.4
          0.338	        20.4373	            3.4
          0.339	       20.44473	            3.4
           0.34	       20.46831	            3.4
          0.341	       20.47114	            3.4
          0.342	        20.4938	            3.4
          0.343	       20.49693	            3.4
          0.344	       20.52083	            3.4
          0.345	       20.52761	            3.5
          0.346	       20.54905	            3.5
          0.347	       20.55462	            3.5
          0.348	       20.57624	            3.5
          0.349	       20.58271	            3.5
           0.35	       20.60644	            3.5
          0.351	       20.60877	            3.5
          0.352	       20.63171	            3.5
          0.353	       20.63422	            3.5
          0.354	       20.65804	            3.5
          0.355	       20.66623	            3.6
          0.356	       20.68604	            3.6
          0.357	       20.69295	            3.6
          0.358	       20.71297	            3.6
          0.359	        20.7188	            3.6
           0.36	        20.7456	            3.6
          0.361	       20.74823	            3.6
          0.362	       20.76835	            3.6
          0.363	       20.77062	            3.6
          0.364	       20.79592	            3.6
          0.365	       20.80357	            3.7
          0.366	       20.82494	            3.7
          0.367	       20.83132	            3.7
          0.368	       20.85146	            3.7
          0.369	       20.85773	            3.7
           0.37	       20.88496	            3.7
          0.371	       20.88773	            3.7
          0.372	        20.9079	            3.7
          0.373	       20.91019	            3.7
          0.374	        20.9356	            3.7
          0.375	       20.94395	            3.8
          0.376	       20.96397	            3.8
          0.377	       20.96983	            3.8
          0.378	        20.9904	            3.8
          0.379	       20.99928	            3.8
           0.38	       21.02699	            3.8
          0.381	       21.02946	            3.8
          0.382	       21.05251	            3.8
          0.383	       21.06553	            3.8
          0.384	       21.09139	            3.8
          0.385	       21.09879	            3.9
          0.386	       21.11948	            3.9
          0.387	       21.12624	            3.9
          0.388	       21.14984	            3.9
          0.389	       21.15685	            3.9
           0.39	       21.18065	            3.9
          0.391	       21.18445	            3.9
          0.392	       21.20587	            3.9
          0.393	       21.20794	            3.9
          0.394	       21.23146	            3.9
          0.395	       21.23804	              4
          0.396	       21.25786	              4
          0.397	        21.2636	              4
          0.398	       21.28742	              4
          0.399	       21.29451	              4
            0.4	       21.31547	              4
          0.401	       21.32304	              4
          0.402	       21.34469	              4
          0.403	       21.34817	              4
          0.404	       21.37286	              4
          0.405	       21.37927	            4.1
          0.406	       21.40256	            4.1
          0.407	       21.41965	            4.1
          0.408	       21.44072	            4.1
          0.409	       21.44747	            4.1
           0.41	       21.46391	            4.1
          0.411	       21.47644	            4.1
          0.412	       21.49697	            4.1
          0.413	       21.50107	            4.1
          0.414	       21.52532	            4.1
          0.415	       21.53221	            4.2
