   Simtime [s] 	   Realtime [s]	 Percentage [%]
          0.001	      0.3040151	           0.02
          0.002	      0.4013084	           0.04
          0.003	      0.6951877	           0.06
          0.004	      0.9271293	           0.08
          0.005	       1.138677	            0.1
          0.006	       1.378919	           0.12
          0.007	       1.575861	           0.14
          0.008	       1.734002	           0.16
          0.009	       1.867457	           0.18
           0.01	         2.0083	            0.2
          0.011	       2.148742	           0.22
          0.012	       2.295755	           0.24
          0.013	       2.459705	           0.26
          0.014	        2.60367	           0.28
          0.015	       2.728367	            0.3
          0.016	        2.86645	           0.32
          0.017	       2.997577	           0.34
          0.018	       3.152272	           0.36
          0.019	       3.302798	           0.38
           0.02	       3.439684	            0.4
          0.021	        3.60074	           0.42
          0.022	       3.758498	           0.44
          0.023	       3.906687	           0.46
          0.024	       4.075645	           0.48
          0.025	       4.225014	            0.5
          0.026	       4.382657	           0.52
          0.027	       4.556895	           0.54
          0.028	       4.725756	           0.56
          0.029	       4.890369	           0.58
           0.03	         5.0633	            0.6
          0.031	       5.214949	           0.62
          0.032	       5.364385	           0.64
          0.033	        5.50363	           0.66
          0.034	         5.6679	           0.68
          0.035	       5.828462	            0.7
          0.036	       5.997176	           0.72
          0.037	       6.157981	           0.74
          0.038	          6.318	           0.76
          0.039	       6.479341	           0.78
           0.04	       6.639279	            0.8
          0.041	       6.804968	           0.82
          0.042	       6.967085	           0.84
          0.043	       7.129435	           0.86
          0.044	       7.298219	           0.88
          0.045	       7.461528	            0.9
          0.046	       7.620472	           0.92
          0.047	       7.782461	           0.94
          0.048	        7.93403	           0.96
          0.049	       8.095814	           0.98
           0.05	       8.212502	              1
          0.051	       8.338207	              1
          0.052	        8.48425	              1
          0.053	       8.639018	            1.1
          0.054	       8.786604	            1.1
          0.055	       8.915707	            1.1
          0.056	        9.06284	            1.1
          0.057	       9.201386	            1.1
          0.058	       9.330758	            1.2
          0.059	       9.449953	            1.2
           0.06	       9.595293	            1.2
          0.061	       9.714038	            1.2
          0.062	       9.843618	            1.2
          0.063	        9.95865	            1.3
          0.064	       10.10294	            1.3
          0.065	       10.24302	            1.3
          0.066	       10.37951	            1.3
          0.067	       10.49656	            1.3
          0.068	       10.62431	            1.4
          0.069	       10.76382	            1.4
           0.07	       10.89036	            1.4
          0.071	       11.01101	            1.4
          0.072	       11.15342	            1.4
          0.073	        11.2913	            1.5
          0.074	       11.44702	            1.5
          0.075	        11.5672	            1.5
          0.076	       11.70711	            1.5
          0.077	       11.84396	            1.5
          0.078	        11.9673	            1.6
          0.079	       12.10854	            1.6
           0.08	       12.24121	            1.6
          0.081	       12.37331	            1.6
          0.082	       12.51957	            1.6
          0.083	       12.64948	            1.7
          0.084	       12.79178	            1.7
          0.085	       12.92289	            1.7
          0.086	       12.94334	            1.7
          0.087	       12.95763	            1.7
          0.088	       12.97123	            1.8
          0.089	       12.98831	            1.8
           0.09	        13.0866	            1.8
          0.091	        13.1075	            1.8
          0.092	       13.12316	            1.8
          0.093	       13.13824	            1.9
          0.094	       13.16265	            1.9
          0.095	       13.18186	            1.9
          0.096	       13.20426	            1.9
          0.097	       13.21553	            1.9
          0.098	       13.23208	              2
          0.099	       13.25601	              2
            0.1	         13.325	              2
          0.101	       13.34092	              2
          0.102	       13.35658	              2
          0.103	        13.4105	            2.1
          0.104	       13.43517	            2.1
          0.105	       13.48372	            2.1
          0.106	       13.49934	            2.1
          0.107	       13.53432	            2.1
          0.108	       13.55043	            2.2
          0.109	       13.58012	            2.2
           0.11	       13.61119	            2.2
          0.111	       13.64038	            2.2
          0.112	       13.66023	            2.2
          0.113	       13.68832	            2.3
          0.114	       13.70565	            2.3
          0.115	       13.73571	            2.3
          0.116	       13.74946	            2.3
          0.117	       13.77969	            2.3
          0.118	       13.79541	            2.4
          0.119	       13.82517	            2.4
           0.12	       13.85908	            2.4
          0.121	       13.88892	            2.4
          0.122	       13.89908	            2.4
          0.123	       13.92757	            2.5
          0.124	       13.94418	            2.5
          0.125	       13.97215	            2.5
          0.126	       13.98596	            2.5
          0.127	       14.01119	            2.5
          0.128	       14.02176	            2.6
          0.129	       14.05836	            2.6
           0.13	        14.0881	            2.6
          0.131	       14.11075	            2.6
          0.132	       14.12223	            2.6
          0.133	       14.14733	            2.7
          0.134	       14.16392	            2.7
          0.135	       14.19974	            2.7
          0.136	       14.21962	            2.7
          0.137	       14.24801	            2.7
          0.138	       14.25993	            2.8
          0.139	       14.28986	            2.8
           0.14	       14.32378	            2.8
          0.141	       14.34833	            2.8
          0.142	       14.36393	            2.8
          0.143	       14.39175	            2.9
          0.144	       14.40613	            2.9
          0.145	       14.43811	            2.9
          0.146	        14.4598	            2.9
          0.147	       14.48444	            2.9
          0.148	       14.49813	              3
          0.149	       14.52477	              3
           0.15	       14.55844	              3
          0.151	       14.58485	              3
          0.152	       14.59744	              3
          0.153	       14.62241	            3.1
          0.154	       14.64865	            3.1
          0.155	       14.67451	            3.1
          0.156	       14.68934	            3.1
          0.157	       14.72251	            3.1
          0.158	       14.73811	            3.2
          0.159	       14.76469	            3.2
           0.16	       14.79385	            3.2
          0.161	         14.825	            3.2
          0.162	       14.83937	            3.2
          0.163	       14.86732	            3.3
          0.164	       14.88379	            3.3
          0.165	       14.91735	            3.3
          0.166	       14.93608	            3.3
          0.167	       14.96737	            3.3
          0.168	       14.98184	            3.4
          0.169	       15.00924	            3.4
           0.17	       15.04471	            3.4
          0.171	       15.06623	            3.4
          0.172	       15.08429	            3.4
          0.173	       15.10816	            3.5
          0.174	       15.12371	            3.5
          0.175	       15.14556	            3.5
          0.176	       15.16317	            3.5
          0.177	       15.18577	            3.5
          0.178	        15.2055	            3.6
          0.179	       15.23446	            3.6
           0.18	       15.26497	            3.6
          0.181	       15.28904	            3.6
          0.182	       15.30514	            3.6
          0.183	       15.33502	            3.7
          0.184	       15.36426	            3.7
          0.185	       15.39286	            3.7
          0.186	       15.41661	            3.7
          0.187	       15.44443	            3.7
          0.188	       15.46018	            3.8
          0.189	       15.49053	            3.8
           0.19	       15.52197	            3.8
          0.191	       15.55043	            3.8
          0.192	       15.56724	            3.8
          0.193	       15.59427	            3.9
          0.194	       15.61267	            3.9
          0.195	       15.64559	            3.9
          0.196	       15.65993	            3.9
          0.197	       15.69442	            3.9
          0.198	       15.70678	              4
          0.199	       15.73584	              4
            0.2	       15.76876	              4
          0.201	       15.79362	              4
          0.202	       15.80558	              4
          0.203	       15.82737	            4.1
          0.204	       15.84448	            4.1
          0.205	       15.86951	            4.1
          0.206	       15.88646	            4.1
          0.207	       15.90891	            4.1
          0.208	       15.91808	            4.2
          0.209	        15.9411	            4.2
           0.21	       15.97026	            4.2
          0.211	       15.99295	            4.2
          0.212	       16.00329	            4.2
          0.213	       16.03017	            4.3
          0.214	       16.04565	            4.3
          0.215	       16.08303	            4.3
          0.216	       16.10127	            4.3
          0.217	       16.12728	            4.3
          0.218	       16.14195	            4.4
          0.219	       16.16968	            4.4
           0.22	       16.19938	            4.4
          0.221	       16.22458	            4.4
          0.222	       16.24303	            4.4
          0.223	       16.26819	            4.5
          0.224	       16.28179	            4.5
          0.225	       16.31103	            4.5
          0.226	       16.34917	            4.5
          0.227	       16.37424	            4.5
          0.228	       16.38633	            4.6
          0.229	       16.41342	            4.6
           0.23	       16.44909	            4.6
          0.231	        16.4738	            4.6
          0.232	       16.48455	            4.6
          0.233	       16.51029	            4.7
          0.234	       16.53247	            4.7
          0.235	       16.56065	            4.7
          0.236	       16.57728	            4.7
          0.237	       16.60247	            4.7
          0.238	        16.6186	            4.8
          0.239	       16.64511	            4.8
           0.24	       16.67618	            4.8
          0.241	       16.70168	            4.8
          0.242	       16.71899	            4.8
          0.243	       16.74252	            4.9
          0.244	       16.76582	            4.9
          0.245	       16.79349	            4.9
          0.246	       16.80605	            4.9
          0.247	       16.83055	            4.9
          0.248	        16.8405	              5
          0.249	        16.8661	              5
           0.25	        16.8921	              5
          0.251	       16.91405	              5
          0.252	       16.93049	              5
          0.253	       16.95709	            5.1
          0.254	       16.97926	            5.1
          0.255	       17.00701	            5.1
          0.256	       17.01853	            5.1
          0.257	       17.04611	            5.1
          0.258	       17.05909	            5.2
          0.259	       17.08384	            5.2
           0.26	       17.10602	            5.2
          0.261	       17.13358	            5.2
          0.262	       17.14771	            5.2
          0.263	       17.17511	            5.3
          0.264	       17.18975	            5.3
          0.265	       17.21831	            5.3
          0.266	       17.23292	            5.3
          0.267	       17.26305	            5.3
          0.268	       17.28084	            5.4
          0.269	       17.31291	            5.4
           0.27	        17.3423	            5.4
          0.271	       17.36612	            5.4
          0.272	       17.38212	            5.4
          0.273	       17.40512	            5.5
          0.274	       17.42276	            5.5
          0.275	       17.45101	            5.5
          0.276	       17.46716	            5.5
          0.277	       17.49291	            5.5
          0.278	       17.50959	            5.6
          0.279	       17.53709	            5.6
           0.28	        17.5691	            5.6
          0.281	       17.59512	            5.6
          0.282	       17.61609	            5.6
          0.283	       17.64431	            5.7
          0.284	       17.66177	            5.7
          0.285	       17.68562	            5.7
          0.286	       17.70122	            5.7
          0.287	       17.72488	            5.7
          0.288	       17.74195	            5.8
          0.289	       17.77388	            5.8
           0.29	       17.80438	            5.8
          0.291	        17.8322	            5.8
          0.292	       17.84653	            5.8
          0.293	       17.87368	            5.9
          0.294	       17.89096	            5.9
          0.295	       17.91668	            5.9
          0.296	       17.93106	            5.9
          0.297	        17.9591	            5.9
          0.298	       17.97395	              6
          0.299	       18.00693	              6
            0.3	       18.03446	              6
          0.301	        18.0518	              6
          0.302	       18.06753	              6
          0.303	       18.09559	            6.1
          0.304	        18.1076	            6.1
          0.305	       18.13695	            6.1
          0.306	       18.15058	            6.1
          0.307	       18.18048	            6.1
          0.308	       18.19722	            6.2
          0.309	       18.22352	            6.2
           0.31	       18.25602	            6.2
          0.311	       18.28136	            6.2
          0.312	       18.29659	            6.2
          0.313	       18.32805	            6.3
          0.314	       18.34158	            6.3
          0.315	       18.36985	            6.3
          0.316	       18.38489	            6.3
          0.317	       18.41166	            6.3
          0.318	        18.4275	            6.4
          0.319	       18.45581	            6.4
           0.32	         18.486	            6.4
          0.321	       18.51242	            6.4
          0.322	       18.52509	            6.4
          0.323	       18.54501	            6.5
          0.324	       18.56064	            6.5
          0.325	       18.59409	            6.5
          0.326	       18.60712	            6.5
          0.327	       18.64177	            6.5
          0.328	       18.65982	            6.6
          0.329	       18.68819	            6.6
           0.33	       18.71391	            6.6
          0.331	       18.73728	            6.6
          0.332	       18.74949	            6.6
          0.333	       18.77266	            6.7
          0.334	       18.78735	            6.7
          0.335	       18.82023	            6.7
          0.336	       18.83344	            6.7
          0.337	       18.85619	            6.7
          0.338	       18.87101	            6.8
          0.339	        18.8971	            6.8
           0.34	       18.92434	            6.8
          0.341	       18.94887	            6.8
          0.342	       18.96503	            6.8
          0.343	       18.99464	            6.9
          0.344	       19.00951	            6.9
          0.345	       19.04095	            6.9
          0.346	       19.05766	            6.9
          0.347	       19.08507	            6.9
          0.348	       19.10515	              7
          0.349	       19.13494	              7
           0.35	       19.16364	              7
          0.351	       19.18742	              7
          0.352	       19.19698	              7
          0.353	       19.21938	            7.1
          0.354	       19.23301	            7.1
          0.355	       19.25878	            7.1
          0.356	       19.27326	            7.1
          0.357	       19.29853	            7.1
          0.358	       19.31218	            7.2
          0.359	       19.34225	            7.2
           0.36	       19.36977	            7.2
          0.361	       19.39696	            7.2
          0.362	       19.40919	            7.2
          0.363	       19.43357	            7.3
          0.364	       19.44922	            7.3
          0.365	       19.47785	            7.3
          0.366	       19.49454	            7.3
          0.367	       19.52431	            7.3
          0.368	       19.53587	            7.4
          0.369	       19.56276	            7.4
           0.37	       19.59487	            7.4
          0.371	       19.61614	            7.4
          0.372	       19.63177	            7.4
          0.373	        19.6626	            7.5
          0.374	       19.67551	            7.5
          0.375	        19.7035	            7.5
          0.376	       19.71402	            7.5
          0.377	       19.75219	            7.5
          0.378	       19.76856	            7.6
          0.379	       19.79206	            7.6
           0.38	       19.81805	            7.6
          0.381	       19.84219	            7.6
          0.382	       19.85498	            7.6
          0.383	       19.88175	            7.7
          0.384	       19.89532	            7.7
          0.385	       19.92331	            7.7
          0.386	       19.93426	            7.7
          0.387	       19.96019	            7.7
          0.388	       19.97365	            7.8
          0.389	       19.99974	            7.8
           0.39	       20.02807	            7.8
          0.391	       20.05904	            7.8
          0.392	       20.07492	            7.8
          0.393	       20.10763	            7.9
          0.394	       20.12919	            7.9
          0.395	       20.15379	            7.9
          0.396	       20.16724	            7.9
          0.397	       20.20273	            7.9
          0.398	       20.22875	              8
          0.399	       20.25574	              8
            0.4	       20.27817	              8
          0.401	       20.31004	              8
          0.402	       20.32762	              8
          0.403	        20.3517	            8.1
          0.404	       20.36892	            8.1
          0.405	        20.3981	            8.1
          0.406	       20.41175	            8.1
          0.407	         20.434	            8.1
          0.408	       20.44813	            8.2
          0.409	       20.47847	            8.2
           0.41	        20.5027	            8.2
          0.411	          20.53	            8.2
          0.412	       20.54202	            8.2
          0.413	       20.56615	            8.3
          0.414	       20.58547	            8.3
          0.415	       20.62604	            8.3
